LAI,CAC,Sensible heat flux (kJ/hr),Latent heat flux (kg/hr)
0.002156,0.000835,-0.037474,0.000048
0.002163,0.000838,-0.037592,0.000048
0.002169,0.000840,-0.037710,0.000049
0.002176,0.000843,-0.037828,0.000049
0.002183,0.000846,-0.037948,0.000049
0.002190,0.000848,-0.038067,0.000049
0.002197,0.000851,-0.038187,0.000049
0.002204,0.000854,-0.038307,0.000049
0.002211,0.000856,-0.038428,0.000049
0.002218,0.000859,-0.038548,0.000050
0.002225,0.000862,-0.038670,0.000050
0.002232,0.000865,-0.038791,0.000050
0.002239,0.000867,-0.038915,0.000050
0.002246,0.000870,-0.039037,0.000050
0.002253,0.000873,-0.039160,0.000050
0.002260,0.000875,-0.039283,0.000051
0.002267,0.000878,-0.039407,0.000051
0.002274,0.000881,-0.039530,0.000051
0.002281,0.000884,-0.039655,0.000051
0.002289,0.000887,-0.039781,0.000051
0.002296,0.000889,-0.039906,0.000051
0.002303,0.000892,-0.040031,0.000051
0.002310,0.000895,-0.040158,0.000052
0.002318,0.000898,-0.040285,0.000052
0.002325,0.000901,-0.040412,0.000052
0.002332,0.000903,-0.040538,0.000052
0.002339,0.000906,-0.040667,0.000052
0.002347,0.000909,-0.040794,0.000052
0.002354,0.000912,-0.040923,0.000053
0.002362,0.000915,-0.041053,0.000053
0.002369,0.000918,-0.041182,0.000053
0.002377,0.000921,-0.041312,0.000053
0.002384,0.000924,-0.041442,0.000053
0.002392,0.000927,-0.041573,0.000053
0.002399,0.000929,-0.041703,0.000054
0.002407,0.000932,-0.041835,0.000054
0.002414,0.000935,-0.041967,0.000054
0.002422,0.000938,-0.042099,0.000054
0.002429,0.000941,-0.042232,0.000054
0.002437,0.000944,-0.042365,0.000054
0.002445,0.000947,-0.042499,0.000055
0.002453,0.000950,-0.042633,0.000055
0.002460,0.000953,-0.042767,0.000055
0.002468,0.000956,-0.042903,0.000055
0.002476,0.000959,-0.043038,0.000055
0.002484,0.000962,-0.043174,0.000056
0.002491,0.000965,-0.043309,0.000056
0.002499,0.000968,-0.043447,0.000056
0.002507,0.000971,-0.043582,0.000056
0.002515,0.000974,-0.043720,0.000056
0.002523,0.000977,-0.043859,0.000056
0.002531,0.000981,-0.043996,0.000057
0.002539,0.000984,-0.044135,0.000057
0.002547,0.000987,-0.044274,0.000057
0.002555,0.000990,-0.044413,0.000057
0.002563,0.000993,-0.044554,0.000057
0.002571,0.000996,-0.044695,0.000057
0.002579,0.000999,-0.044835,0.000058
0.002587,0.001002,-0.044976,0.000058
0.002596,0.001006,-0.045119,0.000058
0.002604,0.001009,-0.045260,0.000058
0.002612,0.001012,-0.045402,0.000058
0.002620,0.001015,-0.045546,0.000059
0.002628,0.001018,-0.045689,0.000059
0.002637,0.001022,-0.045833,0.000059
0.002645,0.001025,-0.045978,0.000059
0.002653,0.001028,-0.046122,0.000059
0.002662,0.001031,-0.046268,0.000060
0.002670,0.001034,-0.046414,0.000060
0.002678,0.001038,-0.046560,0.000060
0.002687,0.001041,-0.046706,0.000060
0.002695,0.001044,-0.046854,0.000060
0.002704,0.001048,-0.047001,0.000060
0.002712,0.001051,-0.047149,0.000061
0.002721,0.001054,-0.047297,0.000061
0.002730,0.001057,-0.047446,0.000061
0.002738,0.001061,-0.047596,0.000061
0.002747,0.001064,-0.047745,0.000061
0.002755,0.001067,-0.047897,0.000062
0.002764,0.001071,-0.048046,0.000062
0.002773,0.001074,-0.048197,0.000062
0.002781,0.001077,-0.048349,0.000062
0.002790,0.001081,-0.048502,0.000062
0.002799,0.001084,-0.048654,0.000063
0.002808,0.001088,-0.048807,0.000063
0.002817,0.001091,-0.048960,0.000063
0.002825,0.001095,-0.049115,0.000063
0.002834,0.001098,-0.049270,0.000063
0.002843,0.001102,-0.049425,0.000064
0.002852,0.001105,-0.049579,0.000064
0.002861,0.001108,-0.049736,0.000064
0.002870,0.001112,-0.049892,0.000064
0.002879,0.001115,-0.050049,0.000064
0.002888,0.001119,-0.050205,0.000065
0.002897,0.001122,-0.050363,0.000065
0.002906,0.001126,-0.050521,0.000065
0.002916,0.001130,-0.050680,0.000065
0.002925,0.001133,-0.050840,0.000065
0.002934,0.001137,-0.050999,0.000066
0.002943,0.001140,-0.051159,0.000066
0.002952,0.001144,-0.051319,0.000066
0.002962,0.001147,-0.051481,0.000066
0.002971,0.001151,-0.051643,0.000066
0.002980,0.001154,-0.051804,0.000067
0.002990,0.001158,-0.051968,0.000067
0.002999,0.001162,-0.052129,0.000067
0.003008,0.001165,-0.052293,0.000067
0.003018,0.001169,-0.052458,0.000067
0.003027,0.001173,-0.052621,0.000068
0.003037,0.001176,-0.052786,0.000068
0.003046,0.001180,-0.052953,0.000068
0.003056,0.001184,-0.053118,0.000068
0.003065,0.001187,-0.053285,0.000069
0.003075,0.001191,-0.053452,0.000069
0.003085,0.001195,-0.053619,0.000069
0.003094,0.001199,-0.053788,0.000069
0.003104,0.001203,-0.053956,0.000069
0.003114,0.001206,-0.054125,0.000070
0.003123,0.001210,-0.054293,0.000070
0.003133,0.001214,-0.054464,0.000070
0.003143,0.001218,-0.054634,0.000070
0.003153,0.001221,-0.054806,0.000070
0.003163,0.001225,-0.054977,0.000071
0.003173,0.001229,-0.055149,0.000071
0.003183,0.001233,-0.055323,0.000071
0.003193,0.001237,-0.055495,0.000071
0.003203,0.001241,-0.055668,0.000072
0.003213,0.001244,-0.055842,0.000072
0.003223,0.001248,-0.056016,0.000072
0.003233,0.001252,-0.056192,0.000072
0.003243,0.001256,-0.056367,0.000072
0.003253,0.001260,-0.056543,0.000073
0.003263,0.001264,-0.056720,0.000073
0.003273,0.001268,-0.056897,0.000073
0.003283,0.001272,-0.057075,0.000073
0.003294,0.001276,-0.057254,0.000074
0.003304,0.001280,-0.057431,0.000074
0.003314,0.001284,-0.057612,0.000074
0.003325,0.001288,-0.057791,0.000074
0.003335,0.001292,-0.057972,0.000075
0.003345,0.001296,-0.058152,0.000075
0.003356,0.001300,-0.058333,0.000075
0.003366,0.001304,-0.058516,0.000075
0.003377,0.001308,-0.058698,0.000075
0.003387,0.001312,-0.058881,0.000076
0.003398,0.001316,-0.059063,0.000076
0.003408,0.001320,-0.059248,0.000076
0.003419,0.001324,-0.059432,0.000076
0.003430,0.001329,-0.059618,0.000077
0.003440,0.001333,-0.059804,0.000077
0.003451,0.001337,-0.059990,0.000077
0.003462,0.001341,-0.060176,0.000077
0.003473,0.001345,-0.060364,0.000078
0.003483,0.001350,-0.060551,0.000078
0.003494,0.001354,-0.060739,0.000078
0.003505,0.001358,-0.060928,0.000078
0.003516,0.001362,-0.061118,0.000079
0.003527,0.001366,-0.061307,0.000079
0.003538,0.001371,-0.061499,0.000079
0.003549,0.001375,-0.061690,0.000079
0.003560,0.001379,-0.061881,0.000080
0.003571,0.001383,-0.062072,0.000080
0.003582,0.001388,-0.062265,0.000080
0.003593,0.001392,-0.062458,0.000080
0.003604,0.001396,-0.062653,0.000081
0.003615,0.001401,-0.062848,0.000081
0.003627,0.001405,-0.063042,0.000081
0.003638,0.001409,-0.063237,0.000081
0.003649,0.001414,-0.063433,0.000082
0.003661,0.001418,-0.063630,0.000082
0.003672,0.001422,-0.063828,0.000082
0.003683,0.001427,-0.064026,0.000082
0.003695,0.001431,-0.064224,0.000083
0.003706,0.001436,-0.064422,0.000083
0.003718,0.001440,-0.064622,0.000083
0.003729,0.001445,-0.064822,0.000083
0.003741,0.001449,-0.065022,0.000084
0.003752,0.001454,-0.065224,0.000084
0.003764,0.001458,-0.065425,0.000084
0.003776,0.001463,-0.065629,0.000084
0.003787,0.001467,-0.065830,0.000085
0.003799,0.001472,-0.066034,0.000085
0.003811,0.001476,-0.066239,0.000085
0.003822,0.001481,-0.066444,0.000085
0.003834,0.001485,-0.066649,0.000086
0.003846,0.001490,-0.066854,0.000086
0.003858,0.001494,-0.067061,0.000086
0.003870,0.001499,-0.067268,0.000087
0.003882,0.001504,-0.067475,0.000087
0.003894,0.001508,-0.067683,0.000087
0.003906,0.001513,-0.067892,0.000087
0.003918,0.001518,-0.068102,0.000088
0.003930,0.001522,-0.068311,0.000088
0.003942,0.001527,-0.068523,0.000088
0.003954,0.001532,-0.068733,0.000088
0.003966,0.001537,-0.068945,0.000089
0.003979,0.001541,-0.069158,0.000089
0.003991,0.001546,-0.069371,0.000089
0.004003,0.001551,-0.069583,0.000089
0.004015,0.001556,-0.069799,0.000090
0.004028,0.001560,-0.070013,0.000090
0.004040,0.001565,-0.070228,0.000090
0.004052,0.001570,-0.070444,0.000091
0.004065,0.001575,-0.070661,0.000091
0.004078,0.001580,-0.070878,0.000091
0.004090,0.001584,-0.071096,0.000091
0.004103,0.001589,-0.071315,0.000092
0.004115,0.001594,-0.071534,0.000092
0.004128,0.001599,-0.071753,0.000092
0.004141,0.001604,-0.071974,0.000093
0.004153,0.001609,-0.072194,0.000093
0.004166,0.001614,-0.072417,0.000093
0.004179,0.001619,-0.072638,0.000093
0.004192,0.001624,-0.072862,0.000094
0.004204,0.001629,-0.073084,0.000094
0.004217,0.001634,-0.073309,0.000094
0.004230,0.001639,-0.073533,0.000095
0.004243,0.001644,-0.073759,0.000095
0.004256,0.001649,-0.073985,0.000095
0.004269,0.001654,-0.074211,0.000095
0.004282,0.001659,-0.074438,0.000096
0.004295,0.001664,-0.074666,0.000096
0.004308,0.001669,-0.074894,0.000096
0.004322,0.001674,-0.075123,0.000097
0.004335,0.001679,-0.075353,0.000097
0.004348,0.001685,-0.075584,0.000097
0.004361,0.001690,-0.075815,0.000098
0.004375,0.001695,-0.076046,0.000098
0.004388,0.001700,-0.076279,0.000098
0.004402,0.001705,-0.076512,0.000098
0.004415,0.001710,-0.076745,0.000099
0.004429,0.001716,-0.076980,0.000099
0.004442,0.001721,-0.077214,0.000099
0.004456,0.001726,-0.077449,0.000100
0.004469,0.001731,-0.077686,0.000100
0.004483,0.001737,-0.077922,0.000100
0.004496,0.001742,-0.078160,0.000101
0.004510,0.001747,-0.078398,0.000101
0.004524,0.001752,-0.078638,0.000101
0.004538,0.001758,-0.078876,0.000101
0.004551,0.001763,-0.079116,0.000102
0.004565,0.001769,-0.079358,0.000102
0.004579,0.001774,-0.079599,0.000102
0.004593,0.001779,-0.079841,0.000103
0.004607,0.001785,-0.080084,0.000103
0.004621,0.001790,-0.080328,0.000103
0.004635,0.001796,-0.080571,0.000104
0.004649,0.001801,-0.080816,0.000104
0.004663,0.001807,-0.081061,0.000104
0.004678,0.001812,-0.081308,0.000105
0.004692,0.001818,-0.081555,0.000105
0.004706,0.001823,-0.081804,0.000105
0.004720,0.001829,-0.082050,0.000106
0.004735,0.001834,-0.082301,0.000106
0.004749,0.001840,-0.082549,0.000106
0.004763,0.001845,-0.082800,0.000106
0.004778,0.001851,-0.083050,0.000107
0.004792,0.001857,-0.083302,0.000107
0.004807,0.001862,-0.083554,0.000107
0.004821,0.001868,-0.083808,0.000108
0.004836,0.001873,-0.084062,0.000108
0.004850,0.001879,-0.084315,0.000108
0.004865,0.001885,-0.084571,0.000109
0.004880,0.001891,-0.084826,0.000109
0.004895,0.001896,-0.085084,0.000109
0.004909,0.001902,-0.085341,0.000110
0.004924,0.001908,-0.085598,0.000110
0.004939,0.001913,-0.085857,0.000110
0.004954,0.001919,-0.086116,0.000111
0.004969,0.001925,-0.086377,0.000111
0.004984,0.001931,-0.086638,0.000111
0.004999,0.001937,-0.086898,0.000112
0.005014,0.001942,-0.087161,0.000112
0.005029,0.001948,-0.087423,0.000112
0.005045,0.001954,-0.087688,0.000113
0.005060,0.001960,-0.087952,0.000113
0.005075,0.001966,-0.088216,0.000113
0.005090,0.001972,-0.088482,0.000114
0.005105,0.001978,-0.088748,0.000114
0.005121,0.001984,-0.089016,0.000114
0.005136,0.001990,-0.089283,0.000115
0.005152,0.001996,-0.089553,0.000115
0.005167,0.002002,-0.089822,0.000116
0.005183,0.002008,-0.090092,0.000116
0.005198,0.002014,-0.090363,0.000116
0.005214,0.002020,-0.090634,0.000117
0.005230,0.002026,-0.090907,0.000117
0.005245,0.002032,-0.091180,0.000117
0.005261,0.002038,-0.091453,0.000118
0.005277,0.002044,-0.091727,0.000118
0.005293,0.002050,-0.092004,0.000118
0.005309,0.002057,-0.092278,0.000119
0.005325,0.002063,-0.092557,0.000119
0.005340,0.002069,-0.092833,0.000119
0.005357,0.002075,-0.093111,0.000120
0.005373,0.002081,-0.093391,0.000120
0.005389,0.002088,-0.093671,0.000120
0.005405,0.002094,-0.093951,0.000121
0.005421,0.002100,-0.094232,0.000121
0.005437,0.002106,-0.094514,0.000122
0.005454,0.002113,-0.094797,0.000122
0.005470,0.002119,-0.095080,0.000122
0.005486,0.002125,-0.095364,0.000123
0.005502,0.002132,-0.095649,0.000123
0.005519,0.002138,-0.095936,0.000123
0.005535,0.002144,-0.096223,0.000124
0.005552,0.002151,-0.096509,0.000124
0.005569,0.002157,-0.096798,0.000124
0.005585,0.002164,-0.097086,0.000125
0.005602,0.002170,-0.097375,0.000125
0.005619,0.002177,-0.097665,0.000126
0.005635,0.002183,-0.097957,0.000126
0.005652,0.002190,-0.098249,0.000126
0.005669,0.002196,-0.098541,0.000127
0.005686,0.002203,-0.098835,0.000127
0.005703,0.002209,-0.099129,0.000127
0.005720,0.002216,-0.099424,0.000128
0.005737,0.002222,-0.099720,0.000128
0.005754,0.002229,-0.100017,0.000129
0.005771,0.002236,-0.100314,0.000129
0.005788,0.002242,-0.100613,0.000129
0.005805,0.002249,-0.100912,0.000130
0.005823,0.002256,-0.101211,0.000130
0.005840,0.002262,-0.101512,0.000131
0.005857,0.002269,-0.101815,0.000131
0.005875,0.002276,-0.102117,0.000131
0.005892,0.002283,-0.102420,0.000132
0.005909,0.002289,-0.102724,0.000132
0.005927,0.002296,-0.103028,0.000133
0.005945,0.002303,-0.103334,0.000133
0.005962,0.002310,-0.103640,0.000133
0.005980,0.002317,-0.103947,0.000134
0.005998,0.002324,-0.104255,0.000134
0.006015,0.002330,-0.104563,0.000134
0.006033,0.002337,-0.104872,0.000135
0.006051,0.002344,-0.105183,0.000135
0.006069,0.002351,-0.105495,0.000136
0.006087,0.002358,-0.105806,0.000136
0.006105,0.002365,-0.106119,0.000136
0.006123,0.002372,-0.106433,0.000137
0.006141,0.002379,-0.106748,0.000137
0.006159,0.002386,-0.107062,0.000138
0.006177,0.002393,-0.107379,0.000138
0.006195,0.002400,-0.107695,0.000139
0.006214,0.002407,-0.108013,0.000139
0.006232,0.002414,-0.108331,0.000139
0.006250,0.002421,-0.108651,0.000140
0.006269,0.002429,-0.108971,0.000140
0.006287,0.002436,-0.109293,0.000141
0.006306,0.002443,-0.109614,0.000141
0.006325,0.002450,-0.109938,0.000141
0.006343,0.002457,-0.110261,0.000142
0.006362,0.002465,-0.110586,0.000142
0.006380,0.002472,-0.110911,0.000143
0.006399,0.002479,-0.111238,0.000143
0.006418,0.002486,-0.111565,0.000143
0.006437,0.002494,-0.111893,0.000144
0.006456,0.002501,-0.112222,0.000144
0.006475,0.002508,-0.112550,0.000145
0.006494,0.002516,-0.112880,0.000145
0.006513,0.002523,-0.113213,0.000146
0.006532,0.002531,-0.113545,0.000146
0.006551,0.002538,-0.113878,0.000146
0.006570,0.002545,-0.114212,0.000147
0.006590,0.002553,-0.114548,0.000147
0.006609,0.002560,-0.114883,0.000148
0.006628,0.002568,-0.115218,0.000148
0.006648,0.002575,-0.115557,0.000149
0.006667,0.002583,-0.115895,0.000149
0.006687,0.002590,-0.116234,0.000149
0.006706,0.002598,-0.116574,0.000150
0.006726,0.002606,-0.116915,0.000150
0.006746,0.002613,-0.117257,0.000151
0.006765,0.002621,-0.117600,0.000151
0.006785,0.002629,-0.117944,0.000152
0.006805,0.002636,-0.118288,0.000152
0.006825,0.002644,-0.118634,0.000153
0.006845,0.002652,-0.118980,0.000153
0.006865,0.002659,-0.119328,0.000153
0.006885,0.002667,-0.119675,0.000154
0.006905,0.002675,-0.120025,0.000154
0.006925,0.002683,-0.120374,0.000155
0.006945,0.002691,-0.120725,0.000155
0.006965,0.002698,-0.121076,0.000156
0.006986,0.002706,-0.121429,0.000156
0.007006,0.002714,-0.121784,0.000157
0.007026,0.002722,-0.122139,0.000157
0.007047,0.002730,-0.122493,0.000158
0.007067,0.002738,-0.122850,0.000158
0.007088,0.002746,-0.123208,0.000158
0.007109,0.002754,-0.123566,0.000159
0.007129,0.002762,-0.123924,0.000159
0.007150,0.002770,-0.124284,0.000160
0.007171,0.002778,-0.124645,0.000160
0.007191,0.002786,-0.125007,0.000161
0.007212,0.002794,-0.125370,0.000161
0.007233,0.002802,-0.125733,0.000162
0.007254,0.002810,-0.126098,0.000162
0.007275,0.002818,-0.126463,0.000163
0.007296,0.002827,-0.126830,0.000163
0.007317,0.002835,-0.127197,0.000164
0.007339,0.002843,-0.127565,0.000164
0.007360,0.002851,-0.127936,0.000165
0.007381,0.002860,-0.128306,0.000165
0.007403,0.002868,-0.128678,0.000165
0.007424,0.002876,-0.129050,0.000166
0.007445,0.002884,-0.129422,0.000166
0.007467,0.002893,-0.129797,0.000167
0.007489,0.002901,-0.130171,0.000167
0.007510,0.002909,-0.130548,0.000168
0.007532,0.002918,-0.130926,0.000168
0.007554,0.002926,-0.131303,0.000169
0.007575,0.002935,-0.131682,0.000169
0.007597,0.002943,-0.132062,0.000170
0.007619,0.002952,-0.132443,0.000170
0.007641,0.002960,-0.132824,0.000171
0.007663,0.002969,-0.133208,0.000171
0.007685,0.002977,-0.133590,0.000172
0.007707,0.002986,-0.133976,0.000172
0.007730,0.002994,-0.134362,0.000173
0.007752,0.003003,-0.134748,0.000173
0.007774,0.003012,-0.135136,0.000174
0.007796,0.003020,-0.135525,0.000174
0.007819,0.003029,-0.135914,0.000175
0.007841,0.003038,-0.136306,0.000175
0.007864,0.003047,-0.136697,0.000176
0.007886,0.003055,-0.137090,0.000176
0.007909,0.003064,-0.137484,0.000177
0.007932,0.003073,-0.137879,0.000177
0.007955,0.003082,-0.138273,0.000178
0.007977,0.003090,-0.138670,0.000178
0.008000,0.003099,-0.139068,0.000179
0.008023,0.003108,-0.139468,0.000179
0.008046,0.003117,-0.139867,0.000180
0.008069,0.003126,-0.140267,0.000180
0.008092,0.003135,-0.140669,0.000181
0.008116,0.003144,-0.141072,0.000181
0.008139,0.003153,-0.141475,0.000182
0.008162,0.003162,-0.141880,0.000182
0.008185,0.003171,-0.142285,0.000183
0.008209,0.003180,-0.142692,0.000184
0.008232,0.003189,-0.143101,0.000184
0.008256,0.003198,-0.143509,0.000185
0.008279,0.003207,-0.143919,0.000185
0.008303,0.003217,-0.144331,0.000186
0.008327,0.003226,-0.144743,0.000186
0.008351,0.003235,-0.145155,0.000187
0.008374,0.003244,-0.145569,0.000187
0.008398,0.003253,-0.145984,0.000188
0.008422,0.003263,-0.146402,0.000188
0.008446,0.003272,-0.146819,0.000189
0.008470,0.003281,-0.147236,0.000189
0.008494,0.003291,-0.147655,0.000190
0.008519,0.003300,-0.148075,0.000190
0.008543,0.003309,-0.148498,0.000191
0.008567,0.003319,-0.148920,0.000192
0.008591,0.003328,-0.149343,0.000192
0.008616,0.003338,-0.149767,0.000193
0.008640,0.003347,-0.150193,0.000193
0.008665,0.003357,-0.150620,0.000194
0.008689,0.003366,-0.151048,0.000194
0.008714,0.003376,-0.151477,0.000195
0.008739,0.003385,-0.151907,0.000195
0.008764,0.003395,-0.152338,0.000196
0.008788,0.003405,-0.152769,0.000196
0.008814,0.003414,-0.153203,0.000197
0.008838,0.003424,-0.153636,0.000198
0.008863,0.003434,-0.154073,0.000198
0.008889,0.003443,-0.154509,0.000199
0.008914,0.003453,-0.154945,0.000199
0.008939,0.003463,-0.155385,0.000200
0.008964,0.003473,-0.155825,0.000200
0.008990,0.003483,-0.156265,0.000201
0.009015,0.003492,-0.156706,0.000202
0.009040,0.003502,-0.157149,0.000202
0.009066,0.003512,-0.157594,0.000203
0.009092,0.003522,-0.158039,0.000203
0.009117,0.003532,-0.158486,0.000204
0.009143,0.003542,-0.158933,0.000204
0.009169,0.003552,-0.159381,0.000205
0.009195,0.003562,-0.159831,0.000206
0.009221,0.003572,-0.160282,0.000206
0.009247,0.003582,-0.160734,0.000207
0.009273,0.003592,-0.161186,0.000207
0.009299,0.003602,-0.161641,0.000208
0.009325,0.003612,-0.162095,0.000208
0.009351,0.003623,-0.162552,0.000209
0.009378,0.003633,-0.163009,0.000210
0.009404,0.003643,-0.163468,0.000210
0.009430,0.003653,-0.163927,0.000211
0.009457,0.003664,-0.164388,0.000211
0.009484,0.003674,-0.164850,0.000212
0.009510,0.003684,-0.165314,0.000213
0.009537,0.003695,-0.165778,0.000213
0.009564,0.003705,-0.166242,0.000214
0.009591,0.003715,-0.166710,0.000214
0.009617,0.003726,-0.167177,0.000215
0.009644,0.003736,-0.167647,0.000216
0.009671,0.003747,-0.168116,0.000216
0.009699,0.003757,-0.168587,0.000217
0.009726,0.003768,-0.169060,0.000217
0.009753,0.003778,-0.169533,0.000218
0.009780,0.003789,-0.170007,0.000219
0.009808,0.003799,-0.170484,0.000219
0.009835,0.003810,-0.170960,0.000220
0.009862,0.003821,-0.171438,0.000220
0.009890,0.003831,-0.171918,0.000221
0.009918,0.003842,-0.172399,0.000222
0.009945,0.003853,-0.172881,0.000222
0.009973,0.003864,-0.173364,0.000223
0.010001,0.003874,-0.173845,0.000224
0.010029,0.003885,-0.174332,0.000224
0.010057,0.003896,-0.174819,0.000225
0.010085,0.003907,-0.175306,0.000225
0.010113,0.003918,-0.175792,0.000226
0.010141,0.003929,-0.176279,0.000227
0.010170,0.003940,-0.176783,0.000227
0.010198,0.003951,-0.177270,0.000228
0.010226,0.003962,-0.177757,0.000229
0.010255,0.003973,-0.178261,0.000229
0.010283,0.003984,-0.178747,0.000230
0.010312,0.003995,-0.179252,0.000231
0.010341,0.004006,-0.179756,0.000231
0.010369,0.004017,-0.180242,0.000232
0.010398,0.004028,-0.180746,0.000232
0.010427,0.004039,-0.181251,0.000233
0.010456,0.004051,-0.181755,0.000234
0.010485,0.004062,-0.182259,0.000234
0.010514,0.004073,-0.182763,0.000235
0.010543,0.004084,-0.183267,0.000236
0.010573,0.004096,-0.183788,0.000236
0.010602,0.004107,-0.184293,0.000237
0.010631,0.004118,-0.184797,0.000238
0.010661,0.004130,-0.185318,0.000238
0.010690,0.004141,-0.185822,0.000239
0.010720,0.004153,-0.186344,0.000240
0.010749,0.004164,-0.186848,0.000240
0.010779,0.004176,-0.187369,0.000241
